U:0,U:1,U:2,p,vtkValidPointMask,arc_length,Points:0,Points:1,Points:2,Point ID
0.00639746,2.32295e-14,0,0,1,0,100,-1,0.5,0
0.00968863,1.2994e-13,0,0,1,0.00199997,100,-0.998,0.5,1
0.0129799,2.36654e-13,0,0,1,0.00400001,100,-0.996,0.5,2
0.0185991,5.88119e-13,0,0,1,0.00599998,100,-0.994,0.5,3
0.0245933,9.7901e-13,0,0,1,0.00800002,100,-0.992,0.5,4
0.0305779,1.47611e-12,0,0,1,0.00999999,100,-0.99,0.5,5
0.0365374,2.25545e-12,0,0,1,0.012,100,-0.988,0.5,6
0.0424966,3.03475e-12,0,0,1,0.014,100,-0.986,0.5,7
0.0484499,3.87698e-12,0,0,1,0.016,100,-0.984,0.5,8
0.0543672,5.0987e-12,0,0,1,0.018,100,-0.982,0.5,9
0.0602843,6.32038e-12,0,0,1,0.02,100,-0.98,0.5,10
0.0662015,7.5421e-12,0,0,1,0.022,100,-0.978,0.5,11
0.0721006,8.94041e-12,0,0,1,0.024,100,-0.976,0.5,12
0.0779668,1.06619e-11,0,0,1,0.026,100,-0.974,0.5,13
0.0838329,1.23834e-11,0,0,1,0.028,100,-0.972,0.5,14
0.0896989,1.41049e-11,0,0,1,0.03,100,-0.97,0.5,15
0.0955652,1.58264e-11,0,0,1,0.032,100,-0.968,0.5,16
0.101384,1.79738e-11,0,0,1,0.034,100,-0.966,0.5,17
0.107188,2.02492e-11,0,0,1,0.036,100,-0.964,0.5,18
0.112993,2.25246e-11,0,0,1,0.038,100,-0.962,0.5,19
0.118797,2.48e-11,0,0,1,0.04,100,-0.96,0.5,20
0.124602,2.70753e-11,0,0,1,0.042,100,-0.958,0.5,21
0.130389,2.94837e-11,0,0,1,0.044,100,-0.956,0.5,22
0.136119,3.23589e-11,0,0,1,0.046,100,-0.954,0.5,23
0.141849,3.52341e-11,0,0,1,0.048,100,-0.952,0.5,24
0.147579,3.81093e-11,0,0,1,0.05,100,-0.95,0.5,25
0.153308,4.09845e-11,0,0,1,0.052,100,-0.948,0.5,26
0.159038,4.38597e-11,0,0,1,0.054,100,-0.946,0.5,27
0.164768,4.67349e-11,0,0,1,0.056,100,-0.944,0.5,28
0.170452,4.99299e-11,0,0,1,0.058,100,-0.942,0.5,29
0.176091,5.34327e-11,0,0,1,0.06,100,-0.94,0.5,30
0.18173,5.69355e-11,0,0,1,0.062,100,-0.938,0.5,31
0.18737,6.04384e-11,0,0,1,0.064,100,-0.936,0.5,32
0.193009,6.39412e-11,0,0,1,0.066,100,-0.934,0.5,33
0.198648,6.74441e-11,0,0,1,0.068,100,-0.932,0.5,34
0.204288,7.09469e-11,0,0,1,0.07,100,-0.93,0.5,35
0.209927,7.44497e-11,0,0,1,0.072,100,-0.928,0.5,36
0.215524,7.81925e-11,0,0,1,0.074,100,-0.926,0.5,37
0.221054,8.23139e-11,0,0,1,0.076,100,-0.924,0.5,38
0.226584,8.64355e-11,0,0,1,0.078,100,-0.922,0.5,39
0.232114,9.0557e-11,0,0,1,0.08,100,-0.92,0.5,40
0.237644,9.46785e-11,0,0,1,0.082,100,-0.918,0.5,41
0.243174,9.88e-11,0,0,1,0.084,100,-0.916,0.5,42
0.248704,1.02922e-10,0,0,1,0.086,100,-0.914,0.5,43
0.254234,1.07043e-10,0,0,1,0.088,100,-0.912,0.5,44
0.259764,1.11165e-10,0,0,1,0.09,100,-0.91,0.5,45
0.265294,1.15286e-10,0,0,1,0.092,100,-0.908,0.5,46
0.27075,1.19718e-10,0,0,1,0.094,100,-0.906,0.5,47
0.276148,1.24394e-10,0,0,1,0.096,100,-0.904,0.5,48
0.281545,1.2907e-10,0,0,1,0.098,100,-0.902,0.5,49
0.286943,1.33746e-10,0,0,1,0.1,100,-0.9,0.5,50
0.292341,1.38422e-10,0,0,1,0.102,100,-0.898,0.5,51
0.297738,1.43098e-10,0,0,1,0.104,100,-0.896,0.5,52
0.303136,1.47774e-10,0,0,1,0.106,100,-0.894,0.5,53
0.308534,1.5245e-10,0,0,1,0.108,100,-0.892,0.5,54
0.313931,1.57126e-10,0,0,1,0.11,100,-0.89,0.5,55
0.319329,1.61802e-10,0,0,1,0.112,100,-0.888,0.5,56
0.324727,1.66478e-10,0,0,1,0.114,100,-0.886,0.5,57
0.330124,1.71154e-10,0,0,1,0.116,100,-0.884,0.5,58
0.335415,1.76105e-10,0,0,1,0.118,100,-0.882,0.5,59
0.340652,1.81193e-10,0,0,1,0.12,100,-0.88,0.5,60
0.34589,1.8628e-10,0,0,1,0.122,100,-0.878,0.5,61
0.351128,1.91368e-10,0,0,1,0.124,100,-0.876,0.5,62
0.356365,1.96455e-10,0,0,1,0.126,100,-0.874,0.5,63
0.361603,2.01543e-10,0,0,1,0.128,100,-0.872,0.5,64
0.36684,2.0663e-10,0,0,1,0.13,100,-0.87,0.5,65
0.372078,2.11717e-10,0,0,1,0.132,100,-0.868,0.5,66
0.377315,2.16805e-10,0,0,1,0.134,100,-0.866,0.5,67
0.382553,2.21892e-10,0,0,1,0.136,100,-0.864,0.5,68
0.387791,2.2698e-10,0,0,1,0.138,100,-0.862,0.5,69
0.393028,2.32067e-10,0,0,1,0.14,100,-0.86,0.5,70
0.398266,2.37155e-10,0,0,1,0.142,100,-0.858,0.5,71
0.403503,2.42242e-10,0,0,1,0.144,100,-0.856,0.5,72
0.408686,2.47374e-10,0,0,1,0.146,100,-0.854,0.5,73
0.41373,2.52619e-10,0,0,1,0.148,100,-0.852,0.5,74
0.418774,2.57864e-10,0,0,1,0.15,100,-0.85,0.5,75
0.423818,2.6311e-10,0,0,1,0.152,100,-0.848,0.5,76
0.428861,2.68355e-10,0,0,1,0.154,100,-0.846,0.5,77
0.433905,2.736e-10,0,0,1,0.156,100,-0.844,0.5,78
0.438949,2.78845e-10,0,0,1,0.158,100,-0.842,0.5,79
0.443993,2.8409e-10,0,0,1,0.16,100,-0.84,0.5,80
0.449037,2.89335e-10,0,0,1,0.162,100,-0.838,0.5,81
0.454081,2.9458e-10,0,0,1,0.164,100,-0.836,0.5,82
0.459125,2.99826e-10,0,0,1,0.166,100,-0.834,0.5,83
0.464168,3.05071e-10,0,0,1,0.168,100,-0.832,0.5,84
0.469212,3.10316e-10,0,0,1,0.17,100,-0.83,0.5,85
0.474256,3.15561e-10,0,0,1,0.172,100,-0.828,0.5,86
0.4793,3.20807e-10,0,0,1,0.174,100,-0.826,0.5,87
0.484344,3.26052e-10,0,0,1,0.176,100,-0.824,0.5,88
0.489387,3.31297e-10,0,0,1,0.178,100,-0.822,0.5,89
0.494431,3.36542e-10,0,0,1,0.18,100,-0.82,0.5,90
0.499271,3.41541e-10,0,0,1,0.182,100,-0.818,0.5,91
0.50408,3.46505e-10,0,0,1,0.184,100,-0.816,0.5,92
0.508889,3.51468e-10,0,0,1,0.186,100,-0.814,0.5,93
0.513699,3.56431e-10,0,0,1,0.188,100,-0.812,0.5,94
0.518508,3.61395e-10,0,0,1,0.19,100,-0.81,0.5,95
0.523318,3.66358e-10,0,0,1,0.192,100,-0.808,0.5,96
0.528127,3.71321e-10,0,0,1,0.194,100,-0.806,0.5,97
0.532936,3.76284e-10,0,0,1,0.196,100,-0.804,0.5,98
0.537746,3.81248e-10,0,0,1,0.198,100,-0.802,0.5,99
0.542555,3.86211e-10,0,0,1,0.2,100,-0.8,0.5,100
0.547365,3.91174e-10,0,0,1,0.202,100,-0.798,0.5,101
0.552174,3.96138e-10,0,0,1,0.204,100,-0.796,0.5,102
0.556983,4.01101e-10,0,0,1,0.206,100,-0.794,0.5,103
0.561793,4.06064e-10,0,0,1,0.208,100,-0.792,0.5,104
0.566602,4.11027e-10,0,0,1,0.21,100,-0.79,0.5,105
0.571412,4.15991e-10,0,0,1,0.212,100,-0.788,0.5,106
0.576221,4.20954e-10,0,0,1,0.214,100,-0.786,0.5,107
0.58103,4.25917e-10,0,0,1,0.216,100,-0.784,0.5,108
0.58584,4.3088e-10,0,0,1,0.218,100,-0.782,0.5,109
0.590649,4.35844e-10,0,0,1,0.22,100,-0.78,0.5,110
0.595459,4.40807e-10,0,0,1,0.222,100,-0.778,0.5,111
0.600039,4.44906e-10,0,0,1,0.224,100,-0.776,0.5,112
0.604565,4.48797e-10,0,0,1,0.226,100,-0.774,0.5,113
0.609091,4.52688e-10,0,0,1,0.228,100,-0.772,0.5,114
0.613617,4.56579e-10,0,0,1,0.23,100,-0.77,0.5,115
0.618142,4.6047e-10,0,0,1,0.232,100,-0.768,0.5,116
0.622668,4.64361e-10,0,0,1,0.234,100,-0.766,0.5,117
0.627194,4.68252e-10,0,0,1,0.236,100,-0.764,0.5,118
0.631719,4.72143e-10,0,0,1,0.238,100,-0.762,0.5,119
0.636245,4.76035e-10,0,0,1,0.24,100,-0.76,0.5,120
0.640771,4.79926e-10,0,0,1,0.242,100,-0.758,0.5,121
0.645297,4.83817e-10,0,0,1,0.244,100,-0.756,0.5,122
0.649822,4.87708e-10,0,0,1,0.246,100,-0.754,0.5,123
0.654348,4.91599e-10,0,0,1,0.248,100,-0.752,0.5,124
0.658874,4.9549e-10,0,0,1,0.25,100,-0.75,0.5,125
0.663399,4.99381e-10,0,0,1,0.252,100,-0.748,0.5,126
0.667925,5.03272e-10,0,0,1,0.254,100,-0.746,0.5,127
0.672451,5.07163e-10,0,0,1,0.256,100,-0.744,0.5,128
0.676977,5.11055e-10,0,0,1,0.258,100,-0.742,0.5,129
0.681502,5.14946e-10,0,0,1,0.26,100,-0.74,0.5,130
0.686028,5.18837e-10,0,0,1,0.262,100,-0.738,0.5,131
0.690554,5.22728e-10,0,0,1,0.264,100,-0.736,0.5,132
0.69508,5.26619e-10,0,0,1,0.266,100,-0.734,0.5,133
0.699605,5.3051e-10,0,0,1,0.268,100,-0.732,0.5,134
0.704131,5.34401e-10,0,0,1,0.27,100,-0.73,0.5,135
0.708657,5.38292e-10,0,0,1,0.272,100,-0.728,0.5,136
0.713074,5.41431e-10,0,0,1,0.274,100,-0.726,0.5,137
0.717256,5.42948e-10,0,0,1,0.276,100,-0.724,0.5,138
0.721439,5.44465e-10,0,0,1,0.278,100,-0.722,0.5,139
0.725621,5.45982e-10,0,0,1,0.28,100,-0.72,0.5,140
0.729804,5.47499e-10,0,0,1,0.282,100,-0.718,0.5,141
0.733986,5.49016e-10,0,0,1,0.284,100,-0.716,0.5,142
0.738169,5.50534e-10,0,0,1,0.286,100,-0.714,0.5,143
0.742351,5.52051e-10,0,0,1,0.288,100,-0.712,0.5,144
0.746534,5.53568e-10,0,0,1,0.29,100,-0.71,0.5,145
0.750716,5.55085e-10,0,0,1,0.292,100,-0.708,0.5,146
0.754899,5.56602e-10,0,0,1,0.294,100,-0.706,0.5,147
0.759081,5.58119e-10,0,0,1,0.296,100,-0.704,0.5,148
0.763264,5.59636e-10,0,0,1,0.298,100,-0.702,0.5,149
0.767446,5.61153e-10,0,0,1,0.3,100,-0.7,0.5,150
0.771629,5.62671e-10,0,0,1,0.302,100,-0.698,0.5,151
0.775811,5.64188e-10,0,0,1,0.304,100,-0.696,0.5,152
0.779994,5.65705e-10,0,0,1,0.306,100,-0.694,0.5,153
0.784176,5.67222e-10,0,0,1,0.308,100,-0.692,0.5,154
0.788359,5.68739e-10,0,0,1,0.31,100,-0.69,0.5,155
0.792541,5.70256e-10,0,0,1,0.312,100,-0.688,0.5,156
0.796724,5.71773e-10,0,0,1,0.314,100,-0.686,0.5,157
0.800906,5.7329e-10,0,0,1,0.316,100,-0.684,0.5,158
0.805089,5.74808e-10,0,0,1,0.318,100,-0.682,0.5,159
0.809271,5.76325e-10,0,0,1,0.32,100,-0.68,0.5,160
0.813454,5.77842e-10,0,0,1,0.322,100,-0.678,0.5,161
0.817636,5.79359e-10,0,0,1,0.324,100,-0.676,0.5,162
0.821819,5.80876e-10,0,0,1,0.326,100,-0.674,0.5,163
0.826001,5.82393e-10,0,0,1,0.328,100,-0.672,0.5,164
0.830184,5.8391e-10,0,0,1,0.33,100,-0.67,0.5,165
0.834366,5.85427e-10,0,0,1,0.332,100,-0.668,0.5,166
0.838549,5.86945e-10,0,0,1,0.334,100,-0.666,0.5,167
0.842534,5.86654e-10,0,0,1,0.336,100,-0.664,0.5,168
0.846301,5.84365e-10,0,0,1,0.338,100,-0.662,0.5,169
0.850068,5.82076e-10,0,0,1,0.34,100,-0.66,0.5,170
0.853836,5.79788e-10,0,0,1,0.342,100,-0.658,0.5,171
0.857603,5.77499e-10,0,0,1,0.344,100,-0.656,0.5,172
0.86137,5.7521e-10,0,0,1,0.346,100,-0.654,0.5,173
0.865137,5.72921e-10,0,0,1,0.348,100,-0.652,0.5,174
0.868904,5.70632e-10,0,0,1,0.35,100,-0.65,0.5,175
0.872672,5.68343e-10,0,0,1,0.352,100,-0.648,0.5,176
0.876439,5.66055e-10,0,0,1,0.354,100,-0.646,0.5,177
0.880206,5.63766e-10,0,0,1,0.356,100,-0.644,0.5,178
0.883973,5.61477e-10,0,0,1,0.358,100,-0.642,0.5,179
0.88774,5.59188e-10,0,0,1,0.36,100,-0.64,0.5,180
0.891508,5.56899e-10,0,0,1,0.362,100,-0.638,0.5,181
0.895275,5.5461e-10,0,0,1,0.364,100,-0.636,0.5,182
0.899042,5.52322e-10,0,0,1,0.366,100,-0.634,0.5,183
0.902809,5.50033e-10,0,0,1,0.368,100,-0.632,0.5,184
0.906576,5.47744e-10,0,0,1,0.37,100,-0.63,0.5,185
0.910344,5.45455e-10,0,0,1,0.372,100,-0.628,0.5,186
0.914111,5.43166e-10,0,0,1,0.374,100,-0.626,0.5,187
0.917878,5.40877e-10,0,0,1,0.376,100,-0.624,0.5,188
0.921645,5.38588e-10,0,0,1,0.378,100,-0.622,0.5,189
0.925412,5.363e-10,0,0,1,0.38,100,-0.62,0.5,190
0.92918,5.34011e-10,0,0,1,0.382,100,-0.618,0.5,191
0.932947,5.31722e-10,0,0,1,0.384,100,-0.616,0.5,192
0.936714,5.29433e-10,0,0,1,0.386,100,-0.614,0.5,193
0.940481,5.27144e-10,0,0,1,0.388,100,-0.612,0.5,194
0.944248,5.24855e-10,0,0,1,0.39,100,-0.61,0.5,195
0.948016,5.22567e-10,0,0,1,0.392,100,-0.608,0.5,196
0.951783,5.20278e-10,0,0,1,0.394,100,-0.606,0.5,197
0.95555,5.17989e-10,0,0,1,0.396,100,-0.604,0.5,198
0.959317,5.157e-10,0,0,1,0.398,100,-0.602,0.5,199
0.963084,5.13411e-10,0,0,1,0.4,100,-0.6,0.5,200
0.966852,5.11122e-10,0,0,1,0.402,100,-0.598,0.5,201
0.970619,5.08834e-10,0,0,1,0.404,100,-0.596,0.5,202
0.974386,5.06545e-10,0,0,1,0.406,100,-0.594,0.5,203
0.978153,5.04256e-10,0,0,1,0.408,100,-0.592,0.5,204
0.981819,5.01526e-10,0,0,1,0.41,100,-0.59,0.5,205
0.984933,4.96407e-10,0,0,1,0.412,100,-0.588,0.5,206
0.988047,4.91288e-10,0,0,1,0.414,100,-0.586,0.5,207
0.991161,4.8617e-10,0,0,1,0.416,100,-0.584,0.5,208
0.994275,4.81051e-10,0,0,1,0.418,100,-0.582,0.5,209
0.997389,4.75932e-10,0,0,1,0.42,100,-0.58,0.5,210
1.0005,4.70814e-10,0,0,1,0.422,100,-0.578,0.5,211
1.00362,4.65695e-10,0,0,1,0.424,100,-0.576,0.5,212
1.00673,4.60576e-10,0,0,1,0.426,100,-0.574,0.5,213
1.00985,4.55458e-10,0,0,1,0.428,100,-0.572,0.5,214
1.01296,4.50339e-10,0,0,1,0.43,100,-0.57,0.5,215
1.01607,4.4522e-10,0,0,1,0.432,100,-0.568,0.5,216
1.01919,4.40102e-10,0,0,1,0.434,100,-0.566,0.5,217
1.0223,4.34983e-10,0,0,1,0.436,100,-0.564,0.5,218
1.02542,4.29864e-10,0,0,1,0.438,100,-0.562,0.5,219
1.02853,4.24746e-10,0,0,1,0.44,100,-0.56,0.5,220
1.03164,4.19627e-10,0,0,1,0.442,100,-0.558,0.5,221
1.03476,4.14508e-10,0,0,1,0.444,100,-0.556,0.5,222
1.03787,4.0939e-10,0,0,1,0.446,100,-0.554,0.5,223
1.04099,4.04271e-10,0,0,1,0.448,100,-0.552,0.5,224
1.0441,3.99152e-10,0,0,1,0.45,100,-0.55,0.5,225
1.04722,3.94034e-10,0,0,1,0.452,100,-0.548,0.5,226
1.05033,3.88915e-10,0,0,1,0.454,100,-0.546,0.5,227
1.05344,3.83797e-10,0,0,1,0.456,100,-0.544,0.5,228
1.05656,3.78678e-10,0,0,1,0.458,100,-0.542,0.5,229
1.05967,3.73559e-10,0,0,1,0.46,100,-0.54,0.5,230
1.06279,3.6844e-10,0,0,1,0.462,100,-0.538,0.5,231
1.0659,3.63322e-10,0,0,1,0.464,100,-0.536,0.5,232
1.06901,3.58203e-10,0,0,1,0.466,100,-0.534,0.5,233
1.07213,3.53085e-10,0,0,1,0.468,100,-0.532,0.5,234
1.07524,3.47966e-10,0,0,1,0.47,100,-0.53,0.5,235
1.07836,3.42847e-10,0,0,1,0.472,100,-0.528,0.5,236
1.08147,3.37729e-10,0,0,1,0.474,100,-0.526,0.5,237
1.08459,3.3261e-10,0,0,1,0.476,100,-0.524,0.5,238
1.0877,3.27491e-10,0,0,1,0.478,100,-0.522,0.5,239
1.09081,3.22372e-10,0,0,1,0.48,100,-0.52,0.5,240
1.09393,3.17254e-10,0,0,1,0.482,100,-0.518,0.5,241
1.09704,3.12135e-10,0,0,1,0.484,100,-0.516,0.5,242
1.10016,3.07016e-10,0,0,1,0.486,100,-0.514,0.5,243
1.10327,3.01898e-10,0,0,1,0.488,100,-0.512,0.5,244
1.10638,2.96779e-10,0,0,1,0.49,100,-0.51,0.5,245
1.1095,2.91661e-10,0,0,1,0.492,100,-0.508,0.5,246
1.11261,2.86542e-10,0,0,1,0.494,100,-0.506,0.5,247
1.11573,2.81423e-10,0,0,1,0.496,100,-0.504,0.5,248
1.11884,2.76304e-10,0,0,1,0.498,100,-0.502,0.5,249
1.12196,2.71186e-10,0,0,1,0.5,100,-0.5,0.5,250
1.12467,2.659e-10,0,0,1,0.502,100,-0.498,0.5,251
1.12738,2.60614e-10,0,0,1,0.504,100,-0.496,0.5,252
1.1301,2.55328e-10,0,0,1,0.506,100,-0.494,0.5,253
1.13281,2.50042e-10,0,0,1,0.508,100,-0.492,0.5,254
1.13553,2.44757e-10,0,0,1,0.51,100,-0.49,0.5,255
1.13824,2.39471e-10,0,0,1,0.512,100,-0.488,0.5,256
1.14096,2.34185e-10,0,0,1,0.514,100,-0.486,0.5,257
1.14367,2.28899e-10,0,0,1,0.516,100,-0.484,0.5,258
1.14639,2.23613e-10,0,0,1,0.518,100,-0.482,0.5,259
1.1491,2.18327e-10,0,0,1,0.52,100,-0.48,0.5,260
1.15181,2.13041e-10,0,0,1,0.522,100,-0.478,0.5,261
1.15453,2.07755e-10,0,0,1,0.524,100,-0.476,0.5,262
1.15724,2.0247e-10,0,0,1,0.526,100,-0.474,0.5,263
1.15996,1.97184e-10,0,0,1,0.528,100,-0.472,0.5,264
1.16267,1.91898e-10,0,0,1,0.53,100,-0.47,0.5,265
1.16539,1.86612e-10,0,0,1,0.532,100,-0.468,0.5,266
1.1681,1.81326e-10,0,0,1,0.534,100,-0.466,0.5,267
1.17082,1.7604e-10,0,0,1,0.536,100,-0.464,0.5,268
1.17353,1.70754e-10,0,0,1,0.538,100,-0.462,0.5,269
1.17624,1.65468e-10,0,0,1,0.54,100,-0.46,0.5,270
1.17896,1.60183e-10,0,0,1,0.542,100,-0.458,0.5,271
1.18167,1.54897e-10,0,0,1,0.544,100,-0.456,0.5,272
1.18439,1.49611e-10,0,0,1,0.546,100,-0.454,0.5,273
1.1871,1.44325e-10,0,0,1,0.548,100,-0.452,0.5,274
1.18982,1.39039e-10,0,0,1,0.55,100,-0.45,0.5,275
1.19253,1.33753e-10,0,0,1,0.552,100,-0.448,0.5,276
1.19525,1.28467e-10,0,0,1,0.554,100,-0.446,0.5,277
1.19796,1.23182e-10,0,0,1,0.556,100,-0.444,0.5,278
1.20068,1.17896e-10,0,0,1,0.558,100,-0.442,0.5,279
1.20339,1.1261e-10,0,0,1,0.56,100,-0.44,0.5,280
1.2061,1.07324e-10,0,0,1,0.562,100,-0.438,0.5,281
1.20882,1.02038e-10,0,0,1,0.564,100,-0.436,0.5,282
1.21153,9.67521e-11,0,0,1,0.566,100,-0.434,0.5,283
1.21425,9.14663e-11,0,0,1,0.568,100,-0.432,0.5,284
1.21696,8.61804e-11,0,0,1,0.57,100,-0.43,0.5,285
1.21968,8.08945e-11,0,0,1,0.572,100,-0.428,0.5,286
1.22239,7.56087e-11,0,0,1,0.574,100,-0.426,0.5,287
1.22511,7.03228e-11,0,0,1,0.576,100,-0.424,0.5,288
1.22782,6.50369e-11,0,0,1,0.578,100,-0.422,0.5,289
1.23053,5.9751e-11,0,0,1,0.58,100,-0.42,0.5,290
1.23325,5.44652e-11,0,0,1,0.582,100,-0.418,0.5,291
1.23596,4.91793e-11,0,0,1,0.584,100,-0.416,0.5,292
1.23868,4.38934e-11,0,0,1,0.586,100,-0.414,0.5,293
1.24139,3.86076e-11,0,0,1,0.588,100,-0.412,0.5,294
1.24411,3.33217e-11,0,0,1,0.59,100,-0.41,0.5,295
1.24653,2.93098e-11,0,0,1,0.592,100,-0.408,0.5,296
1.2487,2.63597e-11,0,0,1,0.594,100,-0.406,0.5,297
1.25088,2.34096e-11,0,0,1,0.596,100,-0.404,0.5,298
1.25305,2.04594e-11,0,0,1,0.598,100,-0.402,0.5,299
1.25523,1.75093e-11,0,0,1,0.6,100,-0.4,0.5,300
1.2574,1.45591e-11,0,0,1,0.602,100,-0.398,0.5,301
1.25958,1.16089e-11,0,0,1,0.604,100,-0.396,0.5,302
1.26176,8.65878e-12,0,0,1,0.606,100,-0.394,0.5,303
1.26393,5.70863e-12,0,0,1,0.608,100,-0.392,0.5,304
1.26611,2.75847e-12,0,0,1,0.61,100,-0.39,0.5,305
1.26828,-1.91645e-13,0,0,1,0.612,100,-0.388,0.5,306
1.27046,-3.1418e-12,0,0,1,0.614,100,-0.386,0.5,307
1.27263,-6.09196e-12,0,0,1,0.616,100,-0.384,0.5,308
1.27481,-9.04212e-12,0,0,1,0.618,100,-0.382,0.5,309
1.27698,-1.19923e-11,0,0,1,0.62,100,-0.38,0.5,310
1.27916,-1.49424e-11,0,0,1,0.622,100,-0.378,0.5,311
1.28134,-1.78926e-11,0,0,1,0.624,100,-0.376,0.5,312
1.28351,-2.08427e-11,0,0,1,0.626,100,-0.374,0.5,313
1.28569,-2.37929e-11,0,0,1,0.628,100,-0.372,0.5,314
1.28786,-2.6743e-11,0,0,1,0.63,100,-0.37,0.5,315
1.29004,-2.96932e-11,0,0,1,0.632,100,-0.368,0.5,316
1.29221,-3.26433e-11,0,0,1,0.634,100,-0.366,0.5,317
1.29439,-3.55935e-11,0,0,1,0.636,100,-0.364,0.5,318
1.29656,-3.85436e-11,0,0,1,0.638,100,-0.362,0.5,319
1.29874,-4.14938e-11,0,0,1,0.64,100,-0.36,0.5,320
1.30091,-4.44439e-11,0,0,1,0.642,100,-0.358,0.5,321
1.30309,-4.73941e-11,0,0,1,0.644,100,-0.356,0.5,322
1.30527,-5.03442e-11,0,0,1,0.646,100,-0.354,0.5,323
1.30744,-5.32944e-11,0,0,1,0.648,100,-0.352,0.5,324
1.30962,-5.62445e-11,0,0,1,0.65,100,-0.35,0.5,325
1.31179,-5.91947e-11,0,0,1,0.652,100,-0.348,0.5,326
1.31397,-6.21449e-11,0,0,1,0.654,100,-0.346,0.5,327
1.31614,-6.5095e-11,0,0,1,0.656,100,-0.344,0.5,328
1.31832,-6.80451e-11,0,0,1,0.658,100,-0.342,0.5,329
1.32049,-7.09953e-11,0,0,1,0.66,100,-0.34,0.5,330
1.32267,-7.39454e-11,0,0,1,0.662,100,-0.338,0.5,331
1.32484,-7.68956e-11,0,0,1,0.664,100,-0.336,0.5,332
1.32702,-7.98457e-11,0,0,1,0.666,100,-0.334,0.5,333
1.3292,-8.27959e-11,0,0,1,0.668,100,-0.332,0.5,334
1.33137,-8.5746e-11,0,0,1,0.67,100,-0.33,0.5,335
1.33355,-8.86962e-11,0,0,1,0.672,100,-0.328,0.5,336
1.33572,-9.16463e-11,0,0,1,0.674,100,-0.326,0.5,337
1.3379,-9.45965e-11,0,0,1,0.676,100,-0.324,0.5,338
1.34007,-9.75466e-11,0,0,1,0.678,100,-0.322,0.5,339
1.34225,-1.00497e-10,0,0,1,0.68,100,-0.32,0.5,340
1.34437,-1.03249e-10,0,0,1,0.682,100,-0.318,0.5,341
1.34601,-1.04018e-10,0,0,1,0.684,100,-0.316,0.5,342
1.34764,-1.04787e-10,0,0,1,0.686,100,-0.314,0.5,343
1.34927,-1.05556e-10,0,0,1,0.688,100,-0.312,0.5,344
1.3509,-1.06325e-10,0,0,1,0.69,100,-0.31,0.5,345
1.35253,-1.07094e-10,0,0,1,0.692,100,-0.308,0.5,346
1.35416,-1.07863e-10,0,0,1,0.694,100,-0.306,0.5,347
1.3558,-1.08632e-10,0,0,1,0.696,100,-0.304,0.5,348
1.35743,-1.09402e-10,0,0,1,0.698,100,-0.302,0.5,349
1.35906,-1.10171e-10,0,0,1,0.7,100,-0.3,0.5,350
1.36069,-1.1094e-10,0,0,1,0.702,100,-0.298,0.5,351
1.36232,-1.11709e-10,0,0,1,0.704,100,-0.296,0.5,352
1.36395,-1.12478e-10,0,0,1,0.706,100,-0.294,0.5,353
1.36559,-1.13247e-10,0,0,1,0.708,100,-0.292,0.5,354
1.36722,-1.14016e-10,0,0,1,0.71,100,-0.29,0.5,355
1.36885,-1.14785e-10,0,0,1,0.712,100,-0.288,0.5,356
1.37048,-1.15554e-10,0,0,1,0.714,100,-0.286,0.5,357
1.37211,-1.16324e-10,0,0,1,0.716,100,-0.284,0.5,358
1.37374,-1.17093e-10,0,0,1,0.718,100,-0.282,0.5,359
1.37538,-1.17862e-10,0,0,1,0.72,100,-0.28,0.5,360
1.37701,-1.18631e-10,0,0,1,0.722,100,-0.278,0.5,361
1.37864,-1.194e-10,0,0,1,0.724,100,-0.276,0.5,362
1.38027,-1.20169e-10,0,0,1,0.726,100,-0.274,0.5,363
1.3819,-1.20938e-10,0,0,1,0.728,100,-0.272,0.5,364
1.38353,-1.21707e-10,0,0,1,0.73,100,-0.27,0.5,365
1.38516,-1.22477e-10,0,0,1,0.732,100,-0.268,0.5,366
1.3868,-1.23246e-10,0,0,1,0.734,100,-0.266,0.5,367
1.38843,-1.24015e-10,0,0,1,0.736,100,-0.264,0.5,368
1.39006,-1.24784e-10,0,0,1,0.738,100,-0.262,0.5,369
1.39169,-1.25553e-10,0,0,1,0.74,100,-0.26,0.5,370
1.39332,-1.26322e-10,0,0,1,0.742,100,-0.258,0.5,371
1.39495,-1.27091e-10,0,0,1,0.744,100,-0.256,0.5,372
1.39659,-1.2786e-10,0,0,1,0.746,100,-0.254,0.5,373
1.39822,-1.28629e-10,0,0,1,0.748,100,-0.252,0.5,374
1.39985,-1.29399e-10,0,0,1,0.75,100,-0.25,0.5,375
1.40148,-1.30168e-10,0,0,1,0.752,100,-0.248,0.5,376
1.40311,-1.30937e-10,0,0,1,0.754,100,-0.246,0.5,377
1.40474,-1.31706e-10,0,0,1,0.756,100,-0.244,0.5,378
1.40638,-1.32475e-10,0,0,1,0.758,100,-0.242,0.5,379
1.40801,-1.33244e-10,0,0,1,0.76,100,-0.24,0.5,380
1.40964,-1.34013e-10,0,0,1,0.762,100,-0.238,0.5,381
1.41127,-1.34782e-10,0,0,1,0.764,100,-0.236,0.5,382
1.4129,-1.35551e-10,0,0,1,0.766,100,-0.234,0.5,383
1.41453,-1.36321e-10,0,0,1,0.768,100,-0.232,0.5,384
1.41617,-1.3709e-10,0,0,1,0.77,100,-0.23,0.5,385
1.4178,-1.37859e-10,0,0,1,0.772,100,-0.228,0.5,386
1.41908,-1.37717e-10,0,0,1,0.774,100,-0.226,0.5,387
1.42017,-1.37054e-10,0,0,1,0.776,100,-0.224,0.5,388
1.42126,-1.36391e-10,0,0,1,0.778,100,-0.222,0.5,389
1.42235,-1.35728e-10,0,0,1,0.78,100,-0.22,0.5,390
